# SAXS profile: number of points = 501, q_min = 0, q_max = 0.5, delta_q = 0.001
#    q    intensity    error
0.00000000 1739148.00000000 286.95941162
0.00100000 1738924.00000000 521.67718506
0.00200000 1738476.00000000 1095.23986816
0.00300000 1737892.00000000 1042.73522949
0.00400000 1737040.00000000 1693.61401367
0.00500000 1735864.00000000 1718.50549316
0.00600000 1734432.00000000 1821.15356445
0.00700000 1732784.00000000 3326.94531250
0.00800000 1730692.00000000 2803.72119141
0.00900000 1728480.00000000 2851.99218750
0.01000000 1726016.00000000 3417.51196289
0.01100000 1723384.00000000 4032.71875000
0.01200000 1720360.00000000 3354.70214844
0.01300000 1717224.00000000 4327.40478516
0.01400000 1713788.00000000 5012.83007812
0.01500000 1710064.00000000 4924.98437500
0.01600000 1706008.00000000 6960.51318359
0.01700000 1701824.00000000 5054.41748047
0.01800000 1697400.00000000 8707.66210938
0.01900000 1692704.00000000 8124.97949219
0.02000000 1687728.00000000 6911.24658203
0.02100000 1682536.00000000 6107.60595703
0.02200000 1677120.00000000 6364.67089844
0.02300000 1671432.00000000 8424.01757812
0.02400000 1665580.00000000 7495.10986328
0.02500000 1659412.00000000 11001.90136719
0.02600000 1653180.00000000 8034.45507812
0.02700000 1646744.00000000 8991.22265625
0.02800000 1639888.00000000 7133.51318359
0.02900000 1632900.00000000 8082.85546875
0.03000000 1625724.00000000 9071.54003906
0.03100000 1618260.00000000 7767.64843750
0.03200000 1610628.00000000 8769.87011719
0.03300000 1602836.00000000 8991.91015625
0.03400000 1594920.00000000 8373.33007812
0.03500000 1586636.00000000 10281.40136719
0.03600000 1578244.00000000 11387.03125000
0.03700000 1569660.00000000 10736.47460938
0.03800000 1560904.00000000 10957.54687500
0.03900000 1551948.00000000 11174.02539062
0.04000000 1542716.00000000 12334.01562500
0.04100000 1533452.00000000 10626.82226562
0.04200000 1524072.00000000 11796.31835938
0.04300000 1514340.00000000 17990.35937500
0.04400000 1504644.00000000 11171.98242188
0.04500000 1494688.00000000 11344.68261719
0.04600000 1484492.00000000 11512.23632812
0.04700000 1474364.00000000 10615.42089844
0.04800000 1464024.00000000 12912.69140625
0.04900000 1453524.00000000 15262.00292969
0.05000000 1442792.00000000 14348.56640625
0.05100000 1431888.00000000 14519.34472656
0.05200000 1420964.00000000 12426.33007812
0.05300000 1409956.00000000 17130.96679688
0.05400000 1398748.00000000 15001.57226562
0.05500000 1387448.00000000 16316.38964844
0.05600000 1376100.00000000 11765.65527344
0.05700000 1364648.00000000 15434.16992188
0.05800000 1353080.00000000 16764.66210938
0.05900000 1341368.00000000 13279.54394531
0.06000000 1329576.00000000 12165.62109375
0.06100000 1317760.00000000 14706.20312500
0.06200000 1305752.00000000 16041.16406250
0.06300000 1293844.00000000 16147.17382812
0.06400000 1281636.00000000 14995.14160156
0.06500001 1269476.00000000 12567.81347656
0.06600000 1257220.00000000 16425.58007812
0.06700000 1245040.00000000 13969.34960938
0.06800000 1232712.00000000 14034.42675781
0.06900001 1220196.00000000 14093.26464844
0.07000000 1207872.00000000 16722.98828125
0.07100000 1195380.00000000 18074.14648438
0.07200000 1182876.00000000 12952.49316406
0.07300001 1170380.00000000 14290.34082031
0.07400000 1157724.00000000 16931.71289062
0.07500000 1145180.00000000 15666.06347656
0.07600001 1132576.00000000 14389.37890625
0.07700001 1119860.00000000 18343.30859375
0.07800000 1107292.00000000 15745.69238281
0.07900000 1094660.00000000 15763.10449219
0.08000001 1082036.00000000 15776.08593750
0.08100000 1069320.00000000 17098.42773438
0.08200000 1056692.00000000 18418.14257812
0.08300000 1044116.00000000 13155.86230469
0.08400001 1031436.00000000 21041.29687500
0.08500000 1018860.00000000 21029.27148438
0.08600000 1006244.00000000 18384.07812500
0.08700000 993644.00000000 13116.10156250
0.08800001 981200.00000000 15718.82519531
0.08900000 968668.00000000 14384.71972656
0.09000000 956216.00000000 14357.58398438
0.09100001 943796.00000000 16931.70117188
0.09200001 931406.00000000 14292.42578125
0.09300000 919102.00000000 12959.33886719
0.09400000 906802.00000000 16798.50781250
0.09500001 894518.00000000 12881.05957031
0.09600000 882350.00000000 14122.01171875
0.09700000 870258.00000000 14072.07226562
0.09800000 858218.00000000 19116.80664062
0.09900001 846204.00000000 15231.67285156
0.10000000 834284.00000000 15167.28320312
0.10100000 822352.00000000 16356.58203125
0.10200001 810620.00000000 17533.71093750
0.10300001 798846.00000000 12461.99804688
0.10400000 787280.00000000 13639.62597656
0.10500000 775676.00000000 13566.57421875
0.10600001 764254.00000000 15946.16015625
0.10700001 752864.00000000 17074.95703125
0.10800000 741466.00000000 12122.96972656
0.10900000 730314.00000000 14460.21777344
0.11000001 719078.00000000 19156.23828125
0.11100001 708112.00000000 16654.79492188
0.11200000 697174.00000000 15362.22949219
0.11300001 686342.00000000 12910.09375000
0.11400001 675536.00000000 13983.59570312
0.11500000 664960.00000000 16198.42578125
0.11600000 654332.00000000 18373.64257812
0.11700001 643934.00000000 11397.63281250
0.11800001 633598.00000000 11309.72460938
0.11900000 623370.00000000 15708.92480469
0.12000000 613234.00000000 12243.21777344
0.12100001 603234.00000000 11039.18261719
0.12200001 593298.00000000 10946.34863281
0.12300000 583486.00000000 15193.97558594
0.12400001 573804.00000000 11834.70800781
0.12500000 564178.00000000 10662.96386719
0.12600000 554688.00000000 16906.89062500
0.12700000 545350.00000000 11517.79199219
0.12800001 536098.00000000 13485.54589844
0.12900001 527026.00000000 11304.70800781
0.13000001 518012.00000000 10178.93652344
0.13100001 509070.00000000 10079.58691406
0.13200000 500332.00000000 11977.94824219
0.13300000 491664.00000000 11858.93554688
0.13400000 483028.00000000 11737.58105469
0.13500001 474612.00000000 13554.91894531
0.13600001 466284.00000000 17247.84570312
0.13700001 458102.00000000 12327.52539062
0.13800001 450079.00000000 11260.97753906
0.13900001 442040.00000000 10211.12500000
0.14000000 434199.00000000 11019.97070312
0.14100000 426448.00000000 13625.01367188
0.14200000 418871.00000000 16172.60937500
0.14300001 411341.00000000 9773.46289062
0.14400001 403985.00000000 8786.67382812
0.14500001 396683.00000000 9556.09375000
0.14600001 389505.00000000 15459.45507812
0.14700000 382471.00000000 9339.94140625
0.14800000 375592.00000000 9233.92968750
0.14900000 368737.00000000 9126.24121094
0.15000001 362059.00000000 13121.01855469
0.15100001 355459.00000000 11346.25195312
0.15200001 348956.00000000 9610.24902344
0.15300001 342588.00000000 10287.91796875
0.15400001 336311.00000000 10165.00097656
0.15500000 330169.00000000 9271.14550781
0.15600000 324119.00000000 9159.60351562
0.15700001 318221.00000000 7541.83789062
0.15800001 312374.00000000 8195.13183594
0.15900001 306633.00000000 8095.11181641
0.16000001 301019.00000000 8723.53125000
0.16100001 295495.00000000 9334.68750000
0.16200000 290055.00000000 9928.58300781
0.16300000 284766.00000000 7705.76806641
0.16400000 279556.00000000 8302.81347656
0.16500001 274435.00000000 10250.14746094
0.16600001 269422.00000000 7423.92382812
0.16700001 264495.00000000 6665.27441406
0.16800001 259642.00000000 7240.11767578
0.16900001 254921.00000000 9750.72949219
0.17000000 250307.00000000 7704.44970703
0.17100000 245732.00000000 6973.87451172
0.17200001 241282.00000000 14400.91699219
0.17300001 236893.00000000 6801.19824219
0.17400001 232647.00000000 8549.77734375
0.17500001 228420.00000000 6633.31738281
0.17600001 224303.00000000 5955.24511719
0.17700000 220296.50000000 5881.91650391
0.17800000 216356.00000000 6970.99023438
0.17900001 212492.50000000 7458.48681641
0.18000001 208711.50000000 9633.08007812
0.18100001 204995.00000000 6156.00000000
0.18200001 201404.00000000 7739.95605469
0.18300001 197844.50000000 7098.66113281
0.18400002 194391.00000000 7012.65576172
0.18500000 190998.00000000 6927.49755859
0.18600000 187679.50000000 6317.29199219
0.18700001 184435.00000000 7801.60058594
0.18800001 181243.50000000 6165.90429688
0.18900001 178145.00000000 7107.98583984
0.19000001 175083.00000000 8025.80517578
0.19100001 172114.50000000 6443.96728516
0.19200000 169208.00000000 6368.14306641
0.19300000 166342.50000000 8228.96386719
0.19400001 163579.50000000 5263.17041016
0.19500001 160846.00000000 5674.64697266
0.19600001 158192.50000000 6076.96533203
0.19700001 155562.00000000 4620.19189453
0.19800001 153040.50000000 5025.08496094
0.19900002 150540.50000000 4967.83691406
0.20000000 148111.00000000 4912.10156250
0.20100001 145737.00000000 5298.99755859
0.20200001 143407.00000000 4803.41748047
0.20300001 141137.50000000 5614.45019531
0.20400001 138934.50000000 5553.90673828
0.20500001 136758.00000000 4648.40478516
0.20600002 134624.00000000 5016.09082031
0.20700002 132530.00000000 7029.39160156
0.20800000 130512.00000000 5728.17187500
0.20900001 128528.50000000 5263.24218750
0.21000001 126596.50000000 5208.81298828
0.21100001 124703.00000000 5948.33349609
0.21200001 122826.00000000 4316.72021484
0.21300001 121010.00000000 6603.51611328
0.21400002 119259.50000000 4230.73095703
0.21500000 117531.50000000 4569.62500000
0.21600001 115845.00000000 6033.20751953
0.21700001 114174.00000000 4480.18798828
0.21800001 112572.50000000 5916.81103516
0.21900001 110968.25000000 5126.73339844
0.22000001 109434.00000000 3627.73730469
0.22100002 107922.25000000 5031.33544922
0.22200002 106443.25000000 5340.79052734
0.22300000 104982.75000000 3880.16259766
0.22400001 103564.50000000 4194.36230469
0.22500001 102187.50000000 5196.23437500
0.22600001 100827.75000000 4806.45898438
0.22700001 99493.00000000  3742.92675781
0.22800002 98203.00000000  4385.25537109
0.22900002 96936.75000000  4013.18164062
0.23000000 95696.75000000  3979.07104492
0.23100001 94476.50000000  4274.11718750
0.23200001 93288.75000000  3260.44189453
0.23300001 92123.00000000  4850.27636719
0.23400001 90987.50000000  4169.50244141
0.23500001 89865.00000000  4135.58740234
0.23600002 88774.75000000  3787.13110352
0.23700002 87700.00000000  3443.97924805
0.23800001 86654.25000000  3417.21044922
0.23900001 85632.75000000  3699.33496094
0.24000001 84621.50000000  3976.78759766
0.24100001 83636.00000000  4553.98046875
0.24200001 82674.00000000  3314.81420898
0.24300002 81731.75000000  5683.62646484
0.24400002 80798.25000000  2969.33593750
0.24500000 79893.75000000  3242.88745117
0.24600001 78991.25000000  3511.95117188
0.24700001 78126.00000000  3196.91601562
0.24800001 77265.75000000  3463.05102539
0.24900001 76423.50000000  2865.88134766
0.25000000 75589.00000000  3415.11108398
0.25100002 74791.50000000  4240.67822266
0.25200000 73996.50000000  4493.06738281
0.25300002 73214.00000000  3905.23510742
0.25400001 72452.00000000  3325.54687500
0.25500003 71697.50000000  3579.13964844
0.25600001 70969.00000000  3009.44067383
0.25700000 70236.00000000  4077.19970703
0.25800002 69525.75000000  2971.18310547
0.25900000 68831.00000000  2684.40893555
0.26000002 68141.75000000  2934.52465820
0.26100001 67455.75000000  3976.51660156
0.26200002 66800.00000000  3952.89038086
0.26300001 66148.25000000  2619.47070312
0.26400000 65518.75000000  3646.11840820
0.26500002 64879.75000000  4918.53417969
0.26600000 64252.25000000  3087.96313477
0.26700002 63653.25000000  2814.74682617
0.26800001 63037.25000000  3052.26367188
0.26900002 62458.50000000  3541.39721680
0.27000001 61874.50000000  3269.75805664
0.27100003 61301.25000000  2501.09130859
0.27200001 60745.00000000  4228.76318359
0.27300000 60190.00000000  3710.71362305
0.27400002 59643.00000000  3444.38354492
0.27500001 59103.50000000  2936.26196289
0.27600002 58576.50000000  2677.23925781
0.27700001 58051.00000000  2904.87207031
0.27800003 57540.50000000  2889.68408203
0.27900001 57029.25000000  2395.22851562
0.28000000 56533.00000000  2859.43920898
0.28100002 56038.62500000  2607.47729492
0.28200001 55554.25000000  2594.10571289
0.28300002 55077.12500000  3754.05712891
0.28400001 54605.25000000  3501.56176758
0.28500003 54139.12500000  3251.59619141
0.28600001 53688.50000000  2773.54809570
0.28700000 53236.50000000  2529.79858398
0.28800002 52777.37500000  2974.26904297
0.28900000 52336.75000000  2504.31347656
0.29000002 51910.50000000  3398.84033203
0.29100001 51481.00000000  2480.35473633
0.29200003 51053.50000000  2916.94189453
0.29300001 50641.62500000  3126.61401367
0.29400000 50225.62500000  2889.22900391
0.29500002 49816.12500000  2211.83618164
0.29600000 49412.25000000  2421.44726562
0.29700002 49015.75000000  2191.00415039
0.29800001 48627.25000000  2835.21191406
0.29900002 48243.50000000  2388.05346680
0.30000001 47851.62500000  3240.75146484
0.30100003 47477.62500000  2795.95751953
0.30200002 47104.50000000  2783.16943359
0.30300000 46739.87500000  2557.60595703
0.30400002 46373.25000000  3182.36450195
0.30500001 46012.75000000  2323.18383789
0.30600002 45660.37500000  2523.19262695
0.30700001 45311.50000000  2512.06958008
0.30800003 44957.62500000  2292.16479492
0.30900002 44622.50000000  2282.44091797
0.31000000 44281.12500000  2685.42895508
0.31100002 43948.75000000  2468.16186523
0.31200001 43615.12500000  2662.04931641
0.31300002 43290.75000000  2242.89404297
0.31400001 42965.50000000  2639.15600586
0.31500003 42652.37500000  3032.58422852
0.31600001 42337.50000000  2214.46313477
0.31700000 42022.87500000  2605.83837891
0.31800002 41721.87500000  2794.94848633
0.31900001 41417.62500000  2186.85058594
0.32000002 41124.12500000  2376.15209961
0.32100001 40831.25000000  2366.57934570
0.32200003 40539.62500000  2160.55957031
0.32300001 40251.12500000  2738.68676758
0.32400000 39968.87500000  3312.42041016
0.32500002 39684.62500000  2522.75170898
0.32600001 39411.75000000  2319.77563477
0.32700002 39140.75000000  2310.87011719
0.32800001 38872.62500000  2110.20043945
0.32900003 38609.50000000  1911.17041016
0.33000001 38351.75000000  2665.83032227
0.33100003 38093.75000000  3414.72412109
0.33200002 37846.00000000  2835.61181641
0.33300000 37597.87500000  2260.38427734
0.33400002 37353.62500000  2064.72167969
0.33500001 37116.37500000  2057.73193359
0.33600003 36881.62500000  2237.23950195
0.33700001 36642.12500000  1857.75585938
0.33800003 36418.12500000  3148.16503906
0.33900002 36192.75000000  3137.91162109
0.34000000 35977.00000000  2760.33544922
0.34100002 35760.87500000  2201.43969727
0.34200001 35547.75000000  2011.82495117
0.34300002 35339.50000000  2188.22192383
0.34400001 35139.12500000  2000.29479980
0.34500003 34936.37500000  2175.83764648
0.34600002 34744.50000000  2170.14160156
0.34700000 34554.62500000  3066.37744141
0.34800002 34369.00000000  2698.82592773
0.34900001 34187.12500000  1974.30651855
0.35000002 34004.00000000  2685.46606445
0.35100001 33834.50000000  2143.75390625
0.35200003 33663.87500000  2317.25292969
0.35300002 33497.25000000  1956.57446289
0.35400000 33338.87500000  2485.41308594
0.35500002 33185.87500000  1949.33837891
0.35600001 33029.25000000  2122.45971680
0.35700002 32888.75000000  2295.96386719
0.35800001 32743.00000000  2115.85278320
0.35900003 32606.06250000  2288.94580078
0.36000001 32468.87500000  2109.82763672
0.36100003 32345.75000000  2283.28662109
0.36200002 32221.18750000  2105.33251953
0.36300001 32096.68750000  2278.22290039
0.36400002 31984.75000000  1926.28173828
0.36500001 31872.00000000  2799.63647461
0.36600003 31767.00000000  1923.65087891
0.36700001 31664.87500000  2447.06152344
0.36800003 31571.37500000  2446.46606445
0.36900002 31477.87500000  2620.53320312
0.37000000 31391.06250000  1746.91259766
0.37100002 31309.37500000  2096.47583008
0.37200001 31228.00000000  2096.64794922
0.37300003 31153.93750000  2272.05688477
0.37400001 31084.12500000  1923.33032227
0.37500003 31023.87500000  2274.67065430
0.37600002 30960.56250000  2100.98388672
0.37700000 30909.25000000  1927.80993652
0.37800002 30855.43750000  2104.95800781
0.37900001 30806.06250000  2282.72924805
0.38000003 30766.50000000  2285.79736328
0.38100001 30729.18750000  2289.01733398
0.38200003 30694.75000000  1939.75488281
0.38300002 30669.06250000  2473.15332031
0.38400000 30645.43750000  2123.72875977
0.38500002 30623.37500000  1950.40283203
0.38600001 30608.37500000  2309.86108398
0.38700002 30597.00000000  1958.82006836
0.38800001 30589.68750000  2677.36254883
0.38900003 30585.18750000  2504.92700195
0.39000002 30583.43750000  1973.09057617
0.39100003 30590.75000000  2338.35717773
0.39200002 30600.18750000  2345.04541016
0.39300001 30614.50000000  2171.18041992
0.39400002 30628.43750000  2177.68212891
0.39500001 30650.31250000  2184.75439453
0.39600003 30674.25000000  2557.31250000
0.39700001 30699.93750000  2199.34350586
0.39800003 30732.25000000  2758.98803711
0.39900002 30769.68750000  2400.03564453
0.40000001 30803.93750000  2593.99951172
0.40100002 30845.75000000  2045.99865723
0.40200001 30891.12500000  2240.84228516
0.40300003 30938.93750000  2437.36962891
0.40400001 30985.00000000  2258.80664062
0.40500003 31038.68750000  2268.30737305
0.40600002 31098.25000000  2278.25781250
0.40700001 31157.68750000  2669.59082031
0.40800002 31214.31250000  2489.49755859
0.40900001 31281.56250000  2500.96093750
0.41000003 31345.68750000  1932.46179199
0.41100001 31414.37500000  2329.69018555
0.41200003 31482.62500000  2535.45336914
0.41300002 31554.62500000  2351.45068359
0.41400003 31628.81250000  3544.00878906
0.41500002 31706.25000000  2176.31713867
0.41600001 31781.43750000  2186.72192383
0.41700003 31862.43750000  2197.55249023
0.41800001 31943.43750000  2007.64514160
0.41900003 32024.06250000  3228.02563477
0.42000002 32105.93750000  2230.23901367
0.42100003 32188.12500000  2241.25927734
0.42200002 32274.25000000  2662.14160156
0.42300001 32360.12500000  2469.72485352
0.42400002 32448.06250000  2482.27685547
0.42500001 32532.37500000  3118.22827148
0.42600003 32619.12500000  2924.95703125
0.42700002 32706.81250000  3569.62158203
0.42800003 32795.81250000  2321.45166016
0.42900002 32883.31250000  2333.07104492
0.43000001 32968.31250000  2131.40136719
0.43100002 33056.93750000  2998.92553711
0.43200001 33140.62500000  2367.73193359
0.43300003 33229.37500000  2163.23242188
0.43400002 33310.81250000  3477.64892578
0.43500003 33399.12500000  2839.59375000
0.43600002 33482.56250000  2853.21679688
0.43700001 33565.62500000  2425.78784180
0.43800002 33641.87500000  3322.97631836
0.43900001 33727.00000000  2225.98193359
0.44000003 33803.81250000  2906.95898438
0.44100001 33882.06250000  2920.29516602
0.44200003 33957.50000000  2707.77124023
0.44300002 34032.62500000  2719.88745117
0.44400004 34103.00000000  3414.56323242
0.44500002 34176.06250000  2286.37866211
0.44600001 34242.81250000  2525.57861328
0.44700003 34307.25000000  2766.53686523
0.44800001 34373.06250000  2778.03100586
0.44900003 34434.06250000  3254.01904297
0.45000002 34491.62500000  2566.69433594
0.45100003 34547.81250000  2342.34179688
0.45200002 34600.31250000  3056.41870117
0.45300001 34651.93750000  2831.75634766
0.45400003 34700.37500000  2368.30078125
0.45500001 34747.87500000  2614.43017578
0.45600003 34787.25000000  2861.59936523
0.45700002 34829.93750000  3349.94360352
0.45800003 34862.50000000  2400.28320312
0.45900002 34895.56250000  2648.57324219
0.46000001 34927.43750000  3381.32519531
0.46100003 34951.93750000  2664.38623047
0.46200001 34974.43750000  3157.66723633
0.46300003 34994.31250000  2922.72509766
0.46400002 35008.31250000  2930.19580078
0.46500003 35019.00000000  2692.61108398
0.46600002 35028.75000000  3435.26977539
0.46700001 35030.25000000  2459.12353516
0.46800002 35037.00000000  2711.33837891
0.46900001 35029.81250000  3457.44262695
0.47000003 35025.50000000  2474.55175781
0.47100002 35014.75000000  2479.04443359
0.47200003 35001.12500000  3724.99487305
0.47300002 34983.06250000  3482.21411133
0.47400004 34960.25000000  2989.10156250
0.47500002 34935.00000000  2743.79492188
0.47600001 34907.25000000  2997.13647461
0.47700003 34873.81250000  2750.49780273
0.47800002 34834.68750000  2753.15966797
0.47900003 34795.18750000  2755.77905273
