# SAXS profile: number of points = 501, q_min = 0, q_max = 0.5, delta_q = 0.001
#    q    intensity    error
0.00000000 1822700.00000000 437.44799805
0.00100000 1822488.00000000 765.44500732
0.00200000 1822300.00000000 1066.04553223
0.00300000 1821568.00000000 1202.23486328
0.00400000 1820952.00000000 1638.85681152
0.00500000 1819736.00000000 1801.53869629
0.00600000 1818280.00000000 2863.79101562
0.00700000 1816756.00000000 2180.10717773
0.00800000 1815028.00000000 2695.31665039
0.00900000 1812932.00000000 3807.15747070
0.01000000 1810472.00000000 3883.46264648
0.01100000 1808012.00000000 4230.74853516
0.01200000 1805276.00000000 3520.28833008
0.01300000 1802120.00000000 4162.89746094
0.01400000 1798808.00000000 4452.04980469
0.01500000 1795360.00000000 6032.40966797
0.01600000 1791624.00000000 4568.64160156
0.01700000 1787704.00000000 5792.16113281
0.01800000 1783472.00000000 5082.89550781
0.01900000 1779020.00000000 5870.76660156
0.02000000 1774264.00000000 7824.50488281
0.02100000 1769404.00000000 8174.64697266
0.02200000 1764328.00000000 6695.62548828
0.02300000 1759012.00000000 8232.17675781
0.02400000 1753388.00000000 7232.72558594
0.02500000 1747616.00000000 8860.41308594
0.02600000 1741676.00000000 9169.92480469
0.02700000 1735472.00000000 8017.88085938
0.02800000 1729064.00000000 12034.28613281
0.02900000 1722316.00000000 10075.54882812
0.03000000 1715456.00000000 8774.55761719
0.03100000 1708496.00000000 10661.01562500
0.03200000 1701152.00000000 10104.84375000
0.03300000 1693692.00000000 8637.82910156
0.03400000 1686124.00000000 10622.58203125
0.03500000 1678308.00000000 9969.14941406
0.03600000 1670200.00000000 13904.41601562
0.03700000 1661972.00000000 11367.88867188
0.03800000 1653588.00000000 9673.49023438
0.03900000 1645124.00000000 11844.89257812
0.04000000 1636268.00000000 11069.35351562
0.04100000 1627400.00000000 11277.88183594
0.04200000 1618188.00000000 10437.31347656
0.04300000 1608916.00000000 15928.26855469
0.04400000 1599448.00000000 17274.03906250
0.04500000 1589984.00000000 13165.06835938
0.04600000 1580072.00000000 16709.26367188
0.04700000 1570212.00000000 16958.29101562
0.04800000 1560108.00000000 17200.19140625
0.04900000 1549936.00000000 12786.97265625
0.05000000 1539516.00000000 16488.21679688
0.05100000 1529080.00000000 13119.50683594
0.05200000 1518456.00000000 13278.89843750
0.05300000 1507612.00000000 14653.98925781
0.05400000 1496728.00000000 12348.00585938
0.05500000 1485744.00000000 18720.37500000
0.05600000 1474544.00000000 20171.76171875
0.05700000 1463212.00000000 16548.92968750
0.05800000 1451908.00000000 12849.38671875
0.05900000 1440412.00000000 14260.08007812
0.06000000 1428768.00000000 16995.19531250
0.06100000 1417076.00000000 14496.68847656
0.06200000 1405264.00000000 17263.66992188
0.06300000 1393408.00000000 16052.06054688
0.06400000 1381436.00000000 18856.60156250
0.06500001 1369228.00000000 14910.89453125
0.06600000 1357208.00000000 16367.92871094
0.06700000 1344920.00000000 13718.18457031
0.06800000 1332648.00000000 16551.48828125
0.06900001 1320168.00000000 24951.17773438
0.07000000 1307804.00000000 15320.92382812
0.07100000 1295296.00000000 18185.95703125
0.07200000 1282776.00000000 15451.03808594
0.07300001 1270040.00000000 18326.67968750
0.07400000 1257376.00000000 15560.02832031
0.07500000 1244720.00000000 19865.73242188
0.07600001 1232024.00000000 17075.85351562
0.07700001 1219184.00000000 21396.68164062
0.07800000 1206296.00000000 21441.91210938
0.07900000 1193472.00000000 17185.99804688
0.08000001 1180464.00000000 18645.42968750
0.08100000 1167580.00000000 17233.48046875
0.08200000 1154612.00000000 20124.88867188
0.08300000 1141748.00000000 20140.43554688
0.08400001 1128760.00000000 17270.02929688
0.08500000 1115728.00000000 18710.75781250
0.08600000 1102824.00000000 15831.03906250
0.08700000 1089804.00000000 17262.49609375
0.08800001 1076832.00000000 20125.99218750
0.08900000 1063884.00000000 15798.67773438
0.09000000 1050792.00000000 18646.30468750
0.09100001 1037900.00000000 14323.02050781
0.09200001 1025000.00000000 15728.62597656
0.09300000 1012138.00000000 18552.49023438
0.09400000 999158.00000000 14238.00195312
0.09500001 986246.00000000 17042.33203125
0.09600000 973484.00000000 16997.03125000
0.09700000 960724.00000000 15534.90722656
0.09800000 947848.00000000 19705.76171875
0.09900001 935174.00000000 18235.89453125
0.10000000 922478.00000000 13975.54199219
0.10100000 909800.00000000 16703.92773438
0.10200001 897208.00000000 16634.23632812
0.10300001 884682.00000000 19321.45703125
0.10400000 872194.00000000 13737.05566406
0.10500000 859752.00000000 15037.06347656
0.10600001 847408.00000000 16321.07910156
0.10700001 835038.00000000 17585.90234375
0.10800000 822872.00000000 21526.33203125
0.10900000 810712.00000000 22740.47265625
0.11000001 798612.00000000 22604.71484375
0.11100001 786584.00000000 15857.53515625
0.11200000 774624.00000000 17068.83984375
0.11300001 762772.00000000 18260.76171875
0.11400001 750948.00000000 15544.62500000
0.11500000 739180.00000000 14147.90527344
0.11600000 727592.00000000 17876.93554688
0.11700001 716038.00000000 24080.35937500
0.11800001 704646.00000000 17609.10546875
0.11900000 693214.00000000 19964.56445312
0.12000000 681894.00000000 13614.01464844
0.12100001 670772.00000000 13502.64062500
0.12200001 659676.00000000 26776.25000000
0.12300000 648780.00000000 13274.03906250
0.12400001 637804.00000000 14350.59082031
0.12500000 627034.00000000 13036.03710938
0.12600000 616356.00000000 15264.05664062
0.12700000 605788.00000000 12794.24316406
0.12800001 595270.00000000 20733.25585938
0.12900001 584914.00000000 21671.06445312
0.13000001 574708.00000000 12422.31445312
0.13100001 564524.00000000 14530.84863281
0.13200000 554476.00000000 13274.15527344
0.13300000 544588.00000000 10946.21875000
0.13400000 534780.00000000 16243.94335938
0.13500001 525008.00000000 12852.19628906
0.13600001 515462.00000000 14829.84277344
0.13700001 505957.00000000 20946.62109375
0.13800001 496637.00000000 14496.83496094
0.13900001 487372.00000000 10234.81250000
0.14000000 478240.00000000 11126.25390625
0.14100000 469228.00000000 14991.83496094
0.14200000 460312.00000000 15797.90820312
0.14300001 451585.00000000 11705.08398438
0.14400001 442906.00000000 11559.84765625
0.14500001 434412.00000000 13319.07324219
0.14600001 425940.00000000 17844.75781250
0.14700000 417671.00000000 15762.90332031
0.14800000 409500.00000000 13728.48730469
0.14900000 401452.00000000 9935.93750000
0.15000001 393486.00000000 12477.44140625
0.15100001 385662.00000000 10551.71289062
0.15200001 377970.00000000 9541.85351562
0.15300001 370381.00000000 11122.54199219
0.15400001 362946.00000000 16033.14062500
0.15500000 355606.00000000 8321.18066406
0.15600000 348371.00000000 9844.96484375
0.15700001 341230.00000000 8895.86621094
0.15800001 334258.00000000 10363.66992188
0.15900001 327396.00000000 10214.75585938
0.16000001 320646.00000000 9292.32128906
0.16100001 313978.00000000 8392.63281250
0.16200000 307468.00000000 8269.35156250
0.16300000 301063.00000000 8146.76513672
0.16400000 294809.00000000 13133.74121094
0.16500001 288603.00000000 11497.94433594
0.16600001 282526.00000000 9200.45996094
0.16700001 276572.00000000 9757.46093750
0.16800001 270718.00000000 10980.32324219
0.16900001 265000.00000000 8109.00048828
0.17000000 259372.00000000 6652.89208984
0.17100000 253833.50000000 6548.90429688
0.17200001 248439.00000000 7736.39062500
0.17300001 243160.50000000 7615.78710938
0.17400001 238014.00000000 11246.16210938
0.17500001 232873.50000000 10451.36328125
0.17600001 227920.00000000 6656.40429688
0.17700000 223042.00000000 8337.30957031
0.17800000 218251.00000000 6446.04345703
0.17900001 213571.50000000 7496.35986328
0.18000001 208985.00000000 7376.12597656
0.18100001 204509.50000000 8374.66406250
0.18200001 200132.00000000 7691.07324219
0.18300001 195872.00000000 7027.88769531
0.18400002 191669.00000000 5850.69677734
0.18500000 187548.50000000 6279.12402344
0.18600000 183544.50000000 5663.26562500
0.18700001 179621.50000000 5065.32666016
0.18800001 175814.00000000 5981.19238281
0.18900001 172078.00000000 6375.49023438
0.19000001 168435.50000000 7238.51611328
0.19100001 164862.50000000 6172.45263672
0.19200000 161359.00000000 6539.88037109
0.19300000 157980.50000000 5976.40234375
0.19400001 154654.00000000 5880.71875000
0.19500001 151428.00000000 5342.37988281
0.19600001 148277.00000000 5696.06103516
0.19700001 145166.50000000 6036.02343750
0.19800001 142185.00000000 4668.64501953
0.19900002 139263.00000000 5849.04638672
0.20000000 136399.50000000 4934.93408203
0.20100001 133623.00000000 5668.28759766
0.20200001 130899.00000000 5181.63720703
0.20300001 128250.50000000 5101.80517578
0.20400001 125689.00000000 4637.92431641
0.20500001 123168.25000000 5328.25878906
0.20600002 120736.75000000 4498.65185547
0.20700002 118350.25000000 4061.78100586
0.20800000 116038.75000000 4001.59643555
0.20900001 113766.75000000 4658.74853516
0.21000001 111564.75000000 3884.12695312
0.21100001 109425.75000000 4175.68701172
0.21200001 107345.00000000 3772.64013672
0.21300001 105310.75000000 4732.66552734
0.21400002 103349.50000000 3999.62597656
0.21500000 101418.75000000 4928.95117188
0.21600001 99546.50000000  3240.23876953
0.21700001 97724.25000000  3515.14135742
0.21800001 95957.25000000  3467.41528320
0.21900001 94243.75000000  4354.06152344
0.22000001 92558.25000000  5216.12060547
0.22100002 90931.25000000  4542.01611328
0.22200002 89346.00000000  3287.48632812
0.22300000 87799.00000000  3835.06030273
0.22400001 86300.00000000  3786.41259766
0.22500001 84834.00000000  3738.63452148
0.22600001 83416.75000000  3976.47656250
0.22700001 82038.50000000  3366.86035156
0.22800002 80692.00000000  2771.77026367
0.22900002 79372.50000000  3012.18652344
0.23000000 78097.75000000  3517.91333008
0.23100001 76860.00000000  4012.09204102
0.23200001 75645.50000000  4230.09667969
0.23300001 74467.50000000  3397.95214844
0.23400001 73335.75000000  3877.62792969
0.23500001 72210.75000000  3067.51293945
0.23600002 71124.50000000  3034.17138672
0.23700002 70067.25000000  3001.68115234
0.23800001 69040.75000000  2475.11083984
0.23900001 68021.25000000  2938.51806641
0.24000001 67048.75000000  2666.19360352
0.24100001 66092.75000000  2879.00024414
0.24200001 65152.25000000  3087.23950195
0.24300002 64246.25000000  2351.41284180
0.24400002 63360.25000000  2794.18725586
0.24500000 62493.50000000  2767.21215820
0.24600001 61648.00000000  3197.68188477
0.24700001 60811.50000000  2940.84423828
0.24800001 60003.75000000  2465.25415039
0.24900001 59217.25000000  2220.64697266
0.25000000 58445.75000000  2200.48242188
0.25100002 57682.50000000  2180.39868164
0.25200000 56947.25000000  2593.37768555
0.25300002 56222.50000000  2784.70068359
0.25400001 55508.62500000  2123.20507812
0.25500003 54816.75000000  2104.96337891
0.25600001 54132.00000000  2921.50415039
0.25700000 53465.50000000  2896.76074219
0.25800002 52808.50000000  2461.93237305
0.25900000 52161.00000000  3458.27441406
0.26000002 51530.62500000  2017.42407227
0.26100001 50913.37500000  3201.43310547
0.26200002 50299.87500000  2579.62939453
0.26300001 49699.25000000  1968.09033203
0.26400000 49101.75000000  2342.15356445
0.26500002 48522.12500000  3097.65258789
0.26600000 47948.00000000  2112.34912109
0.26700002 47388.62500000  2857.53417969
0.26800001 46834.25000000  2834.64306641
0.26900002 46284.62500000  2061.98022461
0.27000001 45750.25000000  2789.62158203
0.27100003 45214.50000000  2213.70214844
0.27200001 44699.00000000  2379.55151367
0.27300000 44178.00000000  1997.28735352
0.27400002 43667.50000000  1801.28454590
0.27500001 43156.50000000  2501.35083008
0.27600002 42658.12500000  1949.68981934
0.27700001 42170.25000000  2637.74926758
0.27800003 41679.62500000  2093.15087891
0.27900001 41195.50000000  1903.23217773
0.28000000 40718.37500000  2059.53540039
0.28100002 40247.50000000  1702.46936035
0.28200001 39780.87500000  2364.17749023
0.28300002 39323.25000000  1842.68762207
0.28400001 38867.37500000  1827.73840332
0.28500003 38416.00000000  1812.85119629
0.28600001 37968.50000000  1961.45275879
0.28700000 37528.25000000  2107.58642578
0.28800002 37088.87500000  1929.36340332
0.28900000 36656.62500000  3189.12646484
0.29000002 36225.87500000  2213.76342773
0.29100001 35804.25000000  1881.87145996
0.29200003 35382.12500000  2177.06225586
0.29300001 34963.00000000  1541.86840820
0.29400000 34548.37500000  2140.27172852
0.29500002 34143.12500000  1970.74133301
0.29600000 33734.12500000  1502.85534668
0.29700002 33337.50000000  2086.26098633
0.29800001 32939.25000000  3102.38330078
0.29900002 32550.37500000  1464.76696777
0.30000001 32160.62500000  1597.25744629
0.30100003 31781.25000000  2015.56701660
0.30200002 31398.75000000  1569.78063965
0.30300000 31023.62500000  1556.14501953
0.30400002 30650.62500000  1822.94604492
0.30500001 30280.75000000  1528.87512207
0.30600002 29919.00000000  1377.77001953
0.30700001 29562.25000000  1365.77600098
0.30800003 29206.12500000  1489.07446289
0.30900002 28857.00000000  1610.22070312
0.31000000 28512.62500000  1330.11401367
0.31100002 28169.62500000  1582.00622559
0.31200001 27836.50000000  1437.61608887
0.31300002 27504.25000000  1295.45031738
0.31400001 27175.75000000  1284.05419922
0.31500003 26851.62500000  1654.59729004
0.31600001 26538.62500000  1261.91162109
0.31700000 26226.50000000  1251.00402832
0.31800002 25913.68750000  1983.95202637
0.31900001 25613.81250000  1598.30187988
0.32000002 25314.62500000  1340.78918457
0.32100001 25021.81250000  1329.40893555
0.32200003 24736.00000000  1438.15112305
0.32300001 24450.12500000  1188.27612305
0.32400000 24174.37500000  1532.05102539
0.32500002 23904.37500000  1285.81640625
0.32600001 23634.62500000  1391.13403320
0.32700002 23371.12500000  1379.83129883
0.32800001 23120.81250000  1369.21459961
0.32900003 22869.50000000  1698.06054688
0.33000001 22626.62500000  1572.77673340
0.33100003 22388.12500000  1226.42163086
0.33200002 22156.06250000  1660.04309082
0.33300000 21932.56250000  1538.34997559
0.33400002 21707.50000000  1090.80200195
0.33500001 21496.31250000  1083.41418457
0.33600003 21284.12500000  1291.09509277
0.33700001 21082.06250000  1175.74670410
0.33800003 20880.93750000  1061.79577637
0.33900002 20690.06250000  1477.27050781
0.34000000 20505.00000000  1258.59692383
0.34100002 20327.12500000  1251.33789062
0.34200001 20152.25000000  1244.19995117
0.34300002 19982.00000000  1546.60693359
0.34400001 19825.37500000  1436.34851074
0.34500003 19668.62500000  1224.96203613
0.34600002 19516.56250000  1320.58825684
0.34700000 19378.06250000  1213.84179688
0.34800002 19238.12500000  1107.82751465
0.34900001 19104.56250000  1303.88647461
0.35000002 18984.43750000  999.53070068
0.35100001 18863.00000000  1394.35302734
0.35200003 18753.12500000  1390.16931152
0.35300002 18644.68750000  1089.03625488
0.35400000 18545.56250000  987.55120850
0.35500002 18450.68750000  1379.37341309
0.35600001 18359.06250000  1081.44055176
0.35700002 18278.18750000  1374.15417480
0.35800001 18201.62500000  1078.17333984
0.35900003 18133.56250000  1077.13366699
0.36000001 18065.75000000  1565.21667480
0.36100003 18006.87500000  1173.32812500
0.36200002 17952.68750000  1564.03820801
0.36300001 17904.75000000  1075.35925293
0.36400002 17863.68750000  1075.84069824
0.36500001 17826.62500000  978.68176270
0.36600003 17795.56250000  1077.61035156
0.36700001 17770.62500000  1275.22009277
0.36800003 17749.15625000  1080.65747070
0.36900002 17737.18750000  1082.85534668
0.37000000 17724.68750000  1479.56835938
0.37100002 17719.37500000  1384.23767090
0.37200001 17722.00000000  1090.70056152
0.37300003 17730.25000000  1193.60046387
0.37400001 17737.81250000  1696.17834473
0.37500003 17754.31250000  1401.88061523
0.37600002 17774.25000000  1206.16064453
0.37700000 17803.31250000  1110.39257812
0.37800002 17831.18750000  1216.44372559
0.37900001 17865.43750000  1120.16296387
0.38000003 17905.00000000  1023.27081299
0.38100001 17948.31250000  1439.81372070
0.38200003 17995.28125000  1447.36059570
0.38300002 18044.28125000  1455.09094238
0.38400000 18103.62500000  1150.03283691
0.38500002 18162.68750000  1682.59143066
0.38600001 18228.62500000  1269.80603027
0.38700002 18292.53125000  1277.55041504
0.38800001 18365.40625000  1071.62145996
0.38900003 18437.78125000  1078.61022949
0.39000002 18517.31250000  1303.24853516
0.39100003 18598.53125000  1421.67187500
0.39200002 18681.84375000  1211.42419434
0.39300001 18773.09375000  1442.33679199
0.39400002 18863.40625000  1788.25097656
0.39500001 18956.09375000  1125.99194336
0.39600003 19052.75000000  1134.59130859
0.39700001 19152.87500000  1257.76928711
0.39800003 19254.06250000  1382.82690430
0.39900002 19356.90625000  1161.41442871
0.40000001 19460.90625000  1638.80297852
0.40100002 19570.56250000  1180.10498047
0.40200001 19683.09375000  1546.79602051
0.40300003 19793.59375000  1199.49182129
0.40400001 19908.90625000  1814.19909668
0.40500003 20026.84375000  1341.59838867
0.40600002 20144.34375000  1475.77465820
0.40700001 20265.06250000  1364.24401855
0.40800002 20386.90625000  1250.73681641
0.40900001 20506.50000000  1765.60974121
0.41000003 20633.31250000  1653.65698242
0.41100001 20757.21875000  2565.59228516
0.41200003 20880.53125000  1810.96862793
0.41300002 21008.12500000  2348.28833008
0.41400003 21137.81250000  1315.82897949
0.41500002 21268.65625000  1459.88061523
0.41600001 21394.87500000  1739.72424316
0.41700003 21524.09375000  1619.47290039
0.41800001 21653.62500000  1497.02343750
0.41900003 21783.65625000  1784.08154297
0.42000002 21914.06250000  1937.42236328
0.42100003 22044.37500000  1395.40905762
0.42200002 22174.81250000  1547.69116211
0.42300001 22305.81250000  1844.24462891
0.42400002 22435.65625000  2145.40966797
0.42500001 22565.87500000  1441.95947266
0.42600003 22695.43750000  1744.37145996
0.42700002 22823.90625000  1465.29479980
0.42800003 22951.31250000  1624.60876465
0.42900002 23081.06250000  1637.60144043
0.43000001 23209.75000000  1950.66345215
0.43100002 23331.75000000  1663.08728027
0.43200001 23459.25000000  1980.78186035
0.43300003 23583.56250000  1535.29003906
0.43400002 23705.75000000  1701.48022461
0.43500003 23831.06250000  1714.40673828
0.43600002 23950.18750000  2668.88916016
0.43700001 24069.43750000  2213.90698242
0.43800002 24188.43750000  2707.77465820
0.43900001 24303.50000000  1924.83728027
0.44000003 24419.81250000  1938.44482422
0.44100001 24534.18750000  1951.94006348
0.44200003 24647.75000000  1801.62744141
0.44300002 24759.37500000  1813.87194824
0.44400004 24867.81250000  1991.91198730
0.44500002 24974.25000000  1837.85510254
0.44600001 25079.62500000  1849.74780273
0.44700003 25184.43750000  1692.39428711
0.44800001 25286.50000000  1873.35046387
0.44900003 25385.25000000  2056.20532227
0.45000002 25484.37500000  1896.41979980
0.45100003 25576.25000000  2774.51171875
0.45200002 25672.81250000  2093.36132812
0.45300001 25763.18750000  2631.70971680
0.45400003 25853.31250000  2823.18188477
0.45500001 25938.00000000  2128.99121094
0.45600003 26024.93750000  2497.61352539
0.45700002 26105.12500000  2331.44873047
0.45800003 26185.43750000  2163.44091797
0.45900002 26264.25000000  2174.67993164
0.46000001 26340.93750000  2003.62341309
0.46100003 26412.06250000  2562.49853516
0.46200001 26483.75000000  3494.66333008
0.46300003 26551.31250000  2217.56567383
0.46400002 26614.62500000  2042.00720215
0.46500003 26678.93750000  2237.82934570
0.46600002 26738.12500000  2060.30639648
0.46700001 26798.12500000  2445.59692383
0.46800002 26854.68750000  2267.07275391
0.46900001 26904.81250000  3414.22070312
0.47000003 26954.43750000  2856.49658203
0.47100002 27004.37500000  1911.90979004
0.47200003 27048.81250000  1919.11340332
0.47300002 27090.12500000  2118.71875000
0.47400004 27132.25000000  2319.80761719
0.47500002 27168.93750000  2521.82080078
0.47600001 27203.93750000  2141.08593750
0.47700003 27233.06250000  2538.39379883
0.47800002 27264.12500000  2546.60571289
