# SAXS profile: number of points = 501, q_min = 0, q_max = 0.5, delta_q = 0.001
#    q    intensity    error
0.00000000 7122272.00000000 1068.34082031
0.00100000 7121600.00000000 2350.12817383
0.00200000 7119904.00000000 4165.14404297
0.00300000 7116432.00000000 5123.83105469
0.00400000 7110896.00000000 5333.17236328
0.00500000 7104560.00000000 6394.10449219
0.00600000 7097456.00000000 7452.32861328
0.00700000 7089120.00000000 12760.41601562
0.00800000 7078560.00000000 9556.05664062
0.00900000 7066416.00000000 10599.62500000
0.01000000 7053360.00000000 12801.84960938
0.01100000 7039328.00000000 13937.87011719
0.01200000 7023040.00000000 16433.91406250
0.01300000 7005872.00000000 16183.56445312
0.01400000 6988064.00000000 18867.77343750
0.01500000 6968416.00000000 23413.87890625
0.01600000 6946608.00000000 17713.85156250
0.01700000 6924688.00000000 24305.65625000
0.01800000 6900832.00000000 19667.37304688
0.01900000 6876272.00000000 24754.58007812
0.02000000 6849904.00000000 23734.91992188
0.02100000 6822304.00000000 27016.32617188
0.02200000 6794240.00000000 37504.20703125
0.02300000 6764128.00000000 31656.12109375
0.02400000 6732896.00000000 30298.03320312
0.02500000 6701680.00000000 36591.17187500
0.02600000 6667120.00000000 27001.83593750
0.02700000 6633296.00000000 33431.81250000
0.02800000 6597552.00000000 28699.35156250
0.02900000 6561360.00000000 29526.12109375
0.03000000 6523248.00000000 36399.72656250
0.03100000 6484320.00000000 43574.63281250
0.03200000 6444256.00000000 35088.97656250
0.03300000 6404096.00000000 52257.42187500
0.03400000 6362048.00000000 36740.82812500
0.03500000 6319344.00000000 51186.68750000
0.03600000 6275408.00000000 38311.36718750
0.03700000 6231104.00000000 42620.75000000
0.03800000 6185120.00000000 47037.83984375
0.03900000 6139104.00000000 40518.08593750
0.04000000 6091680.00000000 52449.36718750
0.04100000 6044192.00000000 45694.09375000
0.04200000 5995520.00000000 46405.32812500
0.04300000 5945248.00000000 43162.50000000
0.04400000 5895376.00000000 51731.92968750
0.04500000 5843984.00000000 60485.23828125
0.04600000 5791952.00000000 69416.54687500
0.04700000 5739296.00000000 53719.81250000
0.04800000 5686336.00000000 54332.94140625
0.04900000 5633440.00000000 63376.20312500
0.05000000 5578720.00000000 51212.64843750
0.05100000 5524240.00000000 43089.07421875
0.05200000 5468368.00000000 56515.58593750
0.05300000 5412672.00000000 48226.91015625
0.05400000 5356240.00000000 48607.87890625
0.05500000 5299584.00000000 75678.06250000
0.05600000 5242176.00000000 71712.96875000
0.05700000 5184320.00000000 67655.38281250
0.05800000 5126416.00000000 58979.41796875
0.05900000 5068048.00000000 50173.67968750
0.06000000 5009648.00000000 50422.10937500
0.06100000 4950864.00000000 55251.64453125
0.06200000 4891792.00000000 55472.92187500
0.06300000 4832128.00000000 46388.42968750
0.06400000 4772608.00000000 51186.22265625
0.06500001 4712512.00000000 60650.03515625
0.06600000 4652864.00000000 56113.53906250
0.06700000 4592544.00000000 56212.73828125
0.06800000 4532576.00000000 60985.81250000
0.06900001 4471888.00000000 65736.75781250
0.07000000 4411552.00000000 61077.93750000
0.07100000 4351504.00000000 70494.36718750
0.07200000 4291184.00000000 61085.00781250
0.07300001 4231360.00000000 70452.14843750
0.07400000 4171216.00000000 70389.27343750
0.07500000 4111024.00000000 51552.24218750
0.07600001 4050576.00000000 56140.98828125
0.07700001 3990528.00000000 51358.10156250
0.07800000 3930728.00000000 46579.12890625
0.07900000 3871208.00000000 51099.94921875
0.08000001 3811848.00000000 46313.95703125
0.08100000 3752520.00000000 46155.99609375
0.08200000 3693632.00000000 64380.00781250
0.08300000 3634584.00000000 59534.48828125
0.08400001 3576032.00000000 45594.41015625
0.08500000 3518352.00000000 49925.41406250
0.08600000 3460408.00000000 63221.65625000
0.08700000 3402248.00000000 44909.67578125
0.08800001 3345408.00000000 49127.32031250
0.08900000 3288560.00000000 48835.11718750
0.09000000 3232120.00000000 44118.44140625
0.09100001 3176168.00000000 56980.45703125
0.09200001 3119976.00000000 47876.03515625
0.09300000 3065200.00000000 47541.25390625
0.09400000 3010488.00000000 55769.29296875
0.09500001 2956376.00000000 59600.54296875
0.09600000 2902392.00000000 42229.80468750
0.09700000 2849088.00000000 54446.07421875
0.09800000 2796024.00000000 45673.05468750
0.09900001 2743904.00000000 53506.13281250
0.10000000 2692096.00000000 53020.83203125
0.10100000 2640488.00000000 72719.03906250
0.10200001 2590000.00000000 48018.60156250
0.10300001 2539720.00000000 43581.59765625
0.10400000 2490368.00000000 39223.29687500
0.10500000 2441200.00000000 54341.11328125
0.10600001 2392896.00000000 57608.97265625
0.10700001 2345144.00000000 49388.73828125
0.10800000 2297800.00000000 48839.74218750
0.10900000 2251088.00000000 52000.13671875
0.11000001 2205192.00000000 40388.09375000
0.11100001 2159712.00000000 54424.74609375
0.11200000 2115104.00000000 39436.11718750
0.11300001 2071104.00000000 35415.87890625
0.11400001 2027312.00000000 48959.58984375
0.11500000 1984392.00000000 51792.63281250
0.11600000 1942268.00000000 51130.20703125
0.11700001 1900788.00000000 37008.34375000
0.11800001 1860040.00000000 39842.05859375
0.11900000 1819848.00000000 39308.71875000
0.12000000 1780252.00000000 35542.73437500
0.12100001 1741240.00000000 38237.63281250
0.12200001 1703232.00000000 37709.55859375
0.12300000 1665232.00000000 34070.64843750
0.12400001 1628484.00000000 30534.07617188
0.12500000 1592148.00000000 39119.07812500
0.12600000 1556412.00000000 35579.57812500
0.12700000 1521352.00000000 37972.94531250
0.12800001 1487156.00000000 31654.11718750
0.12900001 1453272.00000000 34006.56640625
0.13000001 1420372.00000000 30701.34375000
0.13100001 1387860.00000000 35723.51953125
0.13200000 1355992.00000000 35167.65234375
0.13300000 1325164.00000000 29299.37695312
0.13400000 1294388.00000000 31453.62890625
0.13500001 1264504.00000000 28375.47070312
0.13600001 1235332.00000000 38079.10937500
0.13700001 1206504.00000000 27472.09765625
0.13800001 1178472.00000000 27028.25781250
0.13900001 1151172.00000000 26592.07617188
0.14000000 1124244.00000000 26155.53710938
0.14100000 1097884.00000000 28061.91601562
0.14200000 1072176.00000000 34497.26562500
0.14300001 1047060.00000000 22616.49609375
0.14400001 1022544.00000000 24464.36718750
0.14500001 998508.00000000 32800.98828125
0.14600001 975118.00000000 23651.48828125
0.14700000 952328.00000000 25370.01757812
0.14800000 930102.00000000 37418.00390625
0.14900000 908306.00000000 22480.57421875
0.15000001 887026.00000000 24109.36718750
0.15100001 866194.00000000 19749.22460938
0.15200001 846022.00000000 27182.68945312
0.15300001 826250.00000000 22903.65234375
0.15400001 807012.00000000 26268.24218750
0.15500000 788206.00000000 23977.22656250
0.15600000 769928.00000000 25384.52734375
0.15700001 752278.00000000 21394.78710938
0.15800001 734748.00000000 24533.23632812
0.15900001 717756.00000000 24116.60351562
0.16000001 701302.00000000 18630.08984375
0.16100001 685258.00000000 21647.30273438
0.16200000 669702.00000000 21286.47851562
0.16300000 654390.00000000 19317.59375000
0.16400000 639618.00000000 18996.65429688
0.16500001 625212.00000000 17124.55664062
0.16600001 611210.00000000 16841.89257812
0.16700001 597544.00000000 19575.54296875
0.16800001 584282.00000000 28141.94531250
0.16900001 571300.00000000 14568.15136719
0.17000000 558684.00000000 18629.31835938
0.17100000 546544.00000000 18331.08593750
0.17200001 534576.00000000 13872.24804688
0.17300001 522982.00000000 23204.71289062
0.17400001 511782.00000000 16121.13378906
0.17500001 500774.00000000 18508.60742188
0.17600001 490158.00000000 19520.54296875
0.17700000 479707.00000000 16650.63085938
0.17800000 469623.00000000 17653.12890625
0.17900001 459853.00000000 12416.03125000
0.18000001 450221.00000000 13445.85058594
0.18100001 440995.00000000 16854.83007812
0.18200001 431865.00000000 14225.63378906
0.18300001 423122.00000000 11678.16796875
0.18400002 414565.00000000 14955.43359375
0.18500000 406278.00000000 13602.18750000
0.18600000 398085.00000000 13399.54101562
0.18700001 390166.00000000 12102.95019531
0.18800001 382526.00000000 13013.53515625
0.18900001 374989.00000000 14962.06152344
0.19000001 367674.00000000 11587.24707031
0.19100001 360609.00000000 14539.75585938
0.19200000 353656.00000000 10238.34082031
0.19300000 346861.00000000 10093.65527344
0.19400001 340304.00000000 10949.28125000
0.19500001 333867.00000000 9815.69042969
0.19600001 327529.00000000 12582.02734375
0.19700001 321475.00000000 9547.80761719
0.19800001 315442.00000000 9415.94433594
0.19900002 309603.00000000 9288.09082031
0.20000000 303861.00000000 10077.54980469
0.20100001 298328.00000000 14462.94140625
0.20200001 292851.00000000 9809.04492188
0.20300001 287493.00000000 9677.01464844
0.20400001 282341.00000000 11286.58203125
0.20500001 277197.00000000 10278.46582031
0.20600002 272242.00000000 13524.98339844
0.20700002 267336.00000000 9174.97265625
0.20800000 262546.00000000 9053.89941406
0.20900001 257877.00000000 8935.43847656
0.21000001 253276.00000000 9619.42285156
0.21100001 248736.00000000 9491.76660156
0.21200001 244299.00000000 12488.56542969
0.21300001 239954.00000000 7702.52392578
0.21400002 235683.00000000 8360.85546875
0.21500000 231514.50000000 9001.28417969
0.21600001 227407.00000000 10362.93750000
0.21700001 223358.00000000 7303.80664062
0.21800001 219355.50000000 7926.41113281
0.21900001 215472.50000000 12088.00781250
0.22000001 211651.50000000 10524.37109375
0.22100002 207846.00000000 8997.65429688
0.22200002 204138.50000000 6828.43359375
0.22300000 200504.50000000 8758.03710938
0.22400001 196868.00000000 7973.15429688
0.22500001 193351.50000000 9176.46289062
0.22600001 189841.50000000 9049.74511719
0.22700001 186442.50000000 8289.23437500
0.22800002 183061.50000000 8803.42773438
0.22900002 179697.50000000 7439.47705078
0.23000000 176404.00000000 7946.11816406
0.23100001 173165.00000000 7231.37060547
0.23200001 169994.00000000 6535.41943359
0.23300001 166807.50000000 6440.43798828
0.23400001 163707.50000000 6347.75878906
0.23500001 160642.00000000 6824.07275391
0.23600002 157601.00000000 6723.25927734
0.23700002 154622.50000000 6624.02832031
0.23800001 151689.50000000 7613.29638672
0.23900001 148791.00000000 7499.06640625
0.24000001 145930.50000000 5802.92675781
0.24100001 143115.50000000 6753.62060547
0.24200001 140345.50000000 7161.83105469
0.24300002 137632.00000000 6044.79785156
0.24400002 134934.00000000 5950.58984375
0.24500000 132242.00000000 5855.67578125
0.24600001 129632.50000000 5283.17285156
0.24700001 127065.00000000 5199.50000000
0.24800001 124494.50000000 5579.84375000
0.24900001 121982.00000000 6404.05517578
0.25000000 119514.00000000 7199.52343750
0.25100002 117089.50000000 5311.18017578
0.25200000 114697.00000000 5658.57666016
0.25300002 112336.00000000 5136.00244141
0.25400001 109991.50000000 6310.76269531
0.25500003 107716.75000000 5377.22070312
0.25600001 105468.75000000 4472.40234375
0.25700000 103239.50000000 5193.97900391
0.25800002 101053.75000000 5103.71972656
0.25900000 98929.25000000  5787.36132812
0.26000002 96822.25000000  3790.59130859
0.26100001 94753.00000000  4096.17236328
0.26200002 92741.25000000  5487.96386719
0.26300001 90743.25000000  3593.43286133
0.26400000 88778.25000000  3881.82885742
0.26500002 86856.50000000  4158.68945312
0.26600000 84985.25000000  3403.65917969
0.26700002 83120.25000000  4009.72119141
0.26800001 81308.50000000  3280.79809570
0.26900002 79529.50000000  3543.03955078
0.27000001 77807.50000000  3479.16259766
0.27100003 76090.25000000  4035.82714844
0.27200001 74441.50000000  3962.89355469
0.27300000 72783.50000000  3290.54199219
0.27400002 71197.25000000  2936.88671875
0.27500001 69653.50000000  3748.75146484
0.27600002 68125.25000000  2830.60449219
0.27700001 66629.75000000  3056.30664062
0.27800003 65171.25000000  3272.90039062
0.27900001 63749.75000000  3212.98754883
0.28000000 62364.25000000  3154.38378906
0.28100002 61010.25000000  3613.02734375
0.28200001 59709.25000000  2788.12353516
0.28300002 58418.75000000  3235.23071289
0.28400001 57157.25000000  2687.81982422
0.28500003 55947.25000000  3360.19213867
0.28600001 54746.75000000  2356.84765625
0.28700000 53600.75000000  2547.10766602
0.28800002 52494.25000000  2275.62597656
0.28900000 51394.50000000  2906.35913086
0.29000002 50347.62500000  2637.20874023
0.29100001 49336.12500000  2593.10668945
0.29200003 48324.62500000  2548.64086914
0.29300001 47377.62500000  2298.28857422
0.29400000 46431.87500000  2876.45458984
0.29500002 45538.12500000  2628.46069336
0.29600000 44663.62500000  2586.69384766
0.29700002 43812.62500000  2741.79418945
0.29800001 42999.37500000  2892.78295898
0.29900002 42212.75000000  2279.48876953
0.30000001 41442.25000000  1871.11767578
0.30100003 40719.12500000  2029.03417969
0.30200002 40006.62500000  2000.13134766
0.30300000 39330.12500000  2331.48974609
0.30400002 38657.25000000  1945.42626953
0.30500001 38035.75000000  2444.17724609
0.30600002 37426.87500000  1723.50769043
0.30700001 36847.00000000  1872.56457520
0.30800003 36290.00000000  2523.06250000
0.30900002 35760.00000000  1662.84008789
0.31000000 35247.00000000  1973.12707520
0.31100002 34766.37500000  2277.89306641
0.31200001 34274.12500000  1931.00427246
0.31300002 33819.12500000  1911.45703125
0.31400001 33404.37500000  1894.02807617
0.31500003 32986.25000000  1563.54833984
0.31600001 32605.62500000  2015.51684570
0.31700000 32225.12500000  2151.99389648
0.31800002 31885.75000000  1983.45324707
0.31900001 31546.62500000  2271.35693359
0.32000002 31237.25000000  1504.07373047
0.32100001 30945.87500000  1494.68579102
0.32200003 30666.75000000  1634.38452148
0.32300001 30394.87500000  1772.62915039
0.32400000 30150.25000000  2204.73706055
0.32500002 29915.00000000  1609.12792969
0.32600001 29695.75000000  1602.23425293
0.32700002 29496.50000000  1741.47351074
0.32800001 29318.00000000  1591.52770996
0.32900003 29144.37500000  1731.17602539
0.33000001 28993.00000000  2015.30346680
0.33100003 28832.00000000  2010.16723633
0.33200002 28699.62500000  2006.96484375
0.33300000 28580.00000000  1575.04382324
0.33400002 28470.81250000  1716.79016113
0.33500001 28377.31250000  1716.25988770
0.33600003 28292.31250000  1573.19421387
0.33700001 28212.37500000  1716.44091797
0.33800003 28152.00000000  1431.52929688
0.33900002 28099.50000000  1576.38208008
0.34000000 28047.75000000  1865.03515625
0.34100002 28019.50000000  1868.62060547
0.34200001 27994.25000000  1440.30419922
0.34300002 27973.75000000  1587.79016113
0.34400001 27968.75000000  1592.12109375
0.34500003 27980.68750000  2033.07690430
0.34600002 27988.25000000  2039.50390625
0.34700000 28007.87500000  1754.41333008
0.34800002 28038.18750000  2054.91894531
0.34900001 28070.37500000  1915.80310059
0.35000002 28112.18750000  1924.13879395
0.35100001 28169.31250000  2231.00952148
0.35200003 28224.00000000  1942.79919434
0.35300002 28282.25000000  2402.86010742
0.35400000 28357.12500000  1812.02026367
0.35500002 28436.00000000  2429.57202148
0.35600001 28516.25000000  2595.97680664
0.35700002 28615.75000000  1690.33251953
0.35800001 28704.87500000  2318.63623047
0.35900003 28808.37500000  2177.91333008
0.36000001 28912.12500000  2035.26916504
0.36100003 29031.31250000  2049.32055664
0.36200002 29148.00000000  1745.81958008
0.36300001 29277.81250000  2078.13916016
0.36400002 29409.93750000  1771.21362305
0.36500001 29533.62500000  2107.81494141
0.36600003 29673.18750000  2450.26367188
0.36700001 29817.62500000  1645.93298340
0.36800003 29973.31250000  1824.92529297
0.36900002 30123.06250000  2507.74511719
0.37000000 30288.75000000  1854.12585449
0.37100002 30442.50000000  1868.56079102
0.37200001 30605.43750000  2054.84912109
0.37300003 30777.93750000  2417.29931641
0.37400001 30953.43750000  2263.47021484
0.37500003 31126.43750000  2984.40307617
0.37600002 31310.31250000  2124.71801758
0.37700000 31496.12500000  1964.41333008
0.37800002 31685.75000000  1981.46850586
0.37900001 31875.31250000  3088.71777344
0.38000003 32071.37500000  1832.87915039
0.38100001 32262.25000000  2218.35229492
0.38200003 32468.62500000  2238.38720703
0.38300002 32668.00000000  2446.17993164
0.38400000 32882.75000000  2088.87670898
0.38500002 33080.12500000  2298.40722656
0.38600001 33298.31250000  3286.04394531
0.38700002 33505.62500000  2145.03027344
0.38800001 33710.81250000  2753.83642578
0.38900003 33934.62500000  1985.17565918
0.39000002 34147.31250000  2002.73999023
0.39100003 34369.12500000  2425.08569336
0.39200002 34586.62500000  2650.54614258
0.39300001 34809.18750000  2674.38989258
0.39400002 35032.68750000  2490.82421875
0.39500001 35253.87500000  2722.30419922
0.39600003 35482.75000000  3592.09643555
0.39700001 35704.56250000  2344.71875000
0.39800003 35932.62500000  2365.62451172
0.39900002 36154.06250000  2386.16821289
0.40000001 36383.75000000  2845.02734375
0.40100002 36605.00000000  2648.73803711
0.40200001 36831.62500000  3339.70776367
0.40300003 37053.68750000  2694.54443359
0.40400001 37276.87500000  2943.94140625
0.40500003 37505.00000000  2512.46020508
0.40600002 37725.43750000  2533.45190430
0.40700001 37948.56250000  3019.18774414
0.40800002 38170.06250000  3278.42675781
0.40900001 38385.43750000  4013.19750977
0.41000003 38601.25000000  3569.65087891
0.41100001 38810.87500000  2878.21459961
0.41200003 39027.43750000  3143.07495117
0.41300002 39236.75000000  2436.60229492
0.41400003 39445.87500000  2455.50585938
0.41500002 39645.68750000  3710.83642578
0.41600001 39854.06250000  2742.15893555
0.41700003 40053.62500000  2762.49877930
0.41800001 40245.18750000  3288.23315430
0.41900003 40440.37500000  3057.29248047
0.42000002 40629.93750000  3848.67089844
0.42100003 40818.68750000  3617.35229492
0.42200002 41002.56250000  2861.77392578
0.42300001 41182.68750000  2881.14086914
0.42400002 41355.68750000  3427.35278320
0.42500001 41519.62500000  3449.03540039
0.42600003 41688.87500000  3204.20703125
0.42700002 41848.37500000  2955.33227539
0.42800003 42001.81250000  4054.22534180
0.42900002 42153.50000000  3806.46118164
0.43000001 42300.93750000  3008.23120117
0.43100002 42442.68750000  2750.28637695
0.43200001 42585.25000000  3872.27685547
0.43300003 42706.50000000  2780.19335938
0.43400002 42835.62500000  3074.52709961
0.43500003 42957.18750000  3371.28027344
0.43600002 43072.31250000  3105.72924805
0.43700001 43182.87500000  4539.38378906
0.43800002 43280.00000000  3134.98706055
0.43900001 43378.50000000  3149.27929688
0.44000003 43479.00000000  3451.36328125
0.44100001 43558.37500000  3754.29638672
0.44200003 43633.75000000  3479.35546875
0.44300002 43716.00000000  3784.93139648
0.44400004 43781.75000000  3799.16162109
0.44500002 43846.50000000  3519.99731445
0.44600001 43889.75000000  3825.65014648
0.44700003 43950.75000000  3839.53784180
0.44800001 43992.00000000  3555.43359375
0.44900003 44026.50000000  3268.96777344
0.45000002 44059.00000000  3874.76879883
0.45100003 44075.50000000  3884.81494141
0.45200002 44099.12500000  3296.18920898
0.45300001 44110.75000000  3304.33642578
0.45400003 44116.75000000  4215.35546875
0.45500001 44120.75000000  3621.43115234
0.45600003 44116.62500000  4233.87255859
0.45700002 44101.25000000  3635.70727539
0.45800003 44089.37500000  4856.88574219
0.45900002 44060.50000000  4256.24462891
0.46000001 44032.62500000  3653.82739258
0.46100003 44000.25000000  3354.13916016
0.46200001 43963.00000000  4579.84570312
0.46300003 43915.75000000  3973.49731445
0.46400002 43864.00000000  3671.41699219
0.46500003 43805.37500000  4592.99414062
0.46600002 43746.87500000  3370.91552734
0.46700001 43680.62500000  3986.29394531
0.46800002 43610.50000000  3988.39843750
0.46900001 43538.62500000  4604.20947266
0.47000003 43459.12500000  3991.50366211
0.47100002 43376.00000000  3992.32714844
0.47200003 43284.37500000  3685.23193359
0.47300002 43194.50000000  3685.35498047
0.47400004 43099.50000000  3992.09155273
0.47500002 42998.37500000  3991.10937500
